excitation, no sample in, blue torch
Integration time [ms]:  10.000
Averaging Nr. [scans]: 1
Smoothing Nr. [pixels]: 0
Data measured with spectrometer [name]: 1910018M1
Wave   ;Sample   ;Dark     ;Reference;Scope Corrected for Dark
[nm]   ;[counts] ;[counts] ;[counts] 

 300.00;  255.647;  265.999;  281.387;-10.35256
 301.00;  264.246;  210.414;  250.663;53.83167
 302.00;  251.662;  285.956;  282.653;-34.29425
 303.00;  259.471;  272.234;  255.725;-12.76342
 304.00;  297.259;  254.710;  320.361;42.54867
 305.00;  249.526;  264.175;  293.381;-14.64901
 306.00;  250.398;  239.175;  294.954;11.22314
 307.00;  261.479;  265.550;  286.915;-4.07104
 308.00;  273.218;  271.675;  309.083; 1.54243
 309.00;  261.774;  233.955;  307.400;27.81856
 310.00;  259.056;  252.708;  264.729; 6.34788
 311.00;  307.325;  306.824;  332.781; 0.50164
 312.00;  282.612;  295.254;  264.097;-12.64234
 313.00;  254.912;  264.647;  295.922;-9.73505
 314.00;  287.827;  262.300;  284.610;25.52698
 315.00;  285.844;  289.241;  324.385;-3.39705
 316.00;  281.740;  286.299;  304.527;-4.55833
 317.00;  292.600;  272.922;  288.719;19.67805
 318.00;  238.862;  239.375;  281.626;-0.51352
 319.00;  256.389;  256.279;  293.664; 0.10983
 320.00;  291.664;  280.824;  297.354;10.83948
 321.00;  280.978;  243.997;  304.756;36.98043
 322.00;  261.250;  261.884;  289.992;-0.63381
 323.00;  266.674;  249.239;  243.948;17.43455
 324.00;  270.810;  273.355;  278.637;-2.54565
 325.00;  261.168;  227.815;  296.848;33.35274
 326.00;  277.426;  297.907;  295.583;-20.48116
 327.00;  266.354;  273.824;  321.608;-7.47082
 328.00;  254.851;  255.765;  286.382;-0.91428
 329.00;  250.258;  283.424;  268.364;-33.16599
 330.00;  250.386;  269.102;  291.523;-18.71526
 331.00;  268.150;  256.698;  297.988;11.45164
 332.00;  307.531;  277.881;  313.612;29.65078
 333.00;  275.302;  272.218;  304.219; 3.08400
 334.00;  268.137;  257.550;  291.070;10.58689
 335.00;  262.753;  242.590;  341.810;20.16250
 336.00;  259.295;  268.257;  282.299;-8.96244
 337.00;  282.350;  288.072;  310.355;-5.72183
 338.00;  258.293;  284.261;  293.018;-25.96863
 339.00;  294.321;  240.243;  324.408;54.07836
 340.00;  261.787;  254.005;  272.538; 7.78173
 341.00;  237.939;  260.597;  287.792;-22.65764
 342.00;  287.890;  284.765;  303.452; 3.12476
 343.00;  289.323;  302.171;  340.950;-12.84839
 344.00;  296.889;  264.558;  303.704;32.33176
 345.00;  271.625;  268.731;  291.390; 2.89441
 346.00;  271.192;  253.693;  270.379;17.49861
 347.00;  258.204;  289.618;  347.161;-31.41429
 348.00;  237.776;  243.051;  264.665;-5.27479
 349.00;  231.039;  240.951;  293.674;-9.91191
 350.00;  248.857;  251.036;  296.065;-2.17947
 351.00;  268.641;  256.166;  304.241;12.47535
 352.00;  244.752;  249.445;  284.272;-4.69326
 353.00;  276.096;  239.074;  283.387;37.02247
 354.00;  277.944;  241.454;  267.616;36.49022
 355.00;  305.801;  236.390;  317.920;69.41119
 356.00;  268.335;  230.650;  317.436;37.68530
 357.00;  267.723;  270.368;  300.624;-2.64440
 358.00;  254.134;  272.476;  299.715;-18.34180
 359.00;  286.589;  258.366;  307.239;28.22295
 360.00;  237.150;  229.982;  280.580; 7.16831
 361.00;  264.363;  243.087;  284.220;21.27544
 362.00;  279.929;  250.516;  280.837;29.41352
 363.00;  247.363;  250.990;  287.860;-3.62654
 364.00;  266.233;  263.816;  265.616; 2.41680
 365.00;  266.955;  244.370;  308.986;22.58444
 366.00;  236.593;  256.236;  278.999;-19.64332
 367.00;  263.023;  258.676;  271.351; 4.34751
 368.00;  248.577;  251.054;  261.713;-2.47712
 369.00;  283.169;  258.047;  300.697;25.12128
 370.00;  272.380;  256.332;  276.799;16.04882
 371.00;  285.408;  248.102;  279.344;37.30566
 372.00;  267.989;  254.927;  276.875;13.06144
 373.00;  264.210;  249.173;  263.397;15.03658
 374.00;  275.095;  249.275;  300.939;25.81975
 375.00;  260.752;  232.508;  260.711;28.24374
 376.00;  241.383;  236.222;  278.370; 5.16100
 377.00;  286.635;  233.590;  287.521;53.04503
 378.00;  258.720;  235.961;  262.269;22.75896
 379.00;  299.513;  266.998;  285.607;32.51464
 380.00;  265.836;  236.198;  264.756;29.63808
 381.00;  297.919;  244.973;  285.838;52.94594
 382.00;  292.951;  232.084;  269.153;60.86678
 383.00;  287.248;  290.841;  287.913;-3.59342
 384.00;  290.525;  237.405;  289.177;53.12051
 385.00;  295.841;  255.307;  309.736;40.53414
 386.00;  308.326;  275.607;  292.905;32.71896
 387.00;  242.196;  247.440;  280.865;-5.24342
 388.00;  256.805;  239.513;  278.796;17.29220
 389.00;  317.359;  265.070;  280.405;52.28871
 390.00;  288.820;  256.249;  277.401;32.57027
 391.00;  302.824;  259.936;  290.452;42.88834
 392.00;  288.954;  259.988;  260.189;28.96611
 393.00;  298.746;  261.629;  288.564;37.11757
 394.00;  267.811;  253.618;  282.431;14.19367
 395.00;  298.150;  259.941;  268.274;38.20913
 396.00;  282.185;  241.608;  254.624;40.57692
 397.00;  311.917;  268.397;  288.361;43.51968
 398.00;  320.379;  262.904;  282.014;57.47484
 399.00;  305.796;  246.588;  278.720;59.20847
 400.00;  293.012;  262.876;  260.825;30.13537
 401.00;  337.295;  280.336;  284.470;56.95867
 402.00;  303.909;  274.458;  305.711;29.45178
 403.00;  335.598;  257.131;  310.389;78.46710
 404.00;  352.167;  286.730;  357.777;65.43690
 405.00;  296.798;  239.947;  328.731;56.85155
 406.00;  329.164;  253.096;  294.111;76.06865
 407.00;  355.039;  261.987;  311.923;93.05139
 408.00;  320.124;  247.528;  295.619;72.59559
 409.00;  357.529;  297.102;  325.163;60.42713
 410.00;  397.668;  282.537;  321.470;115.13079
 411.00;  401.550;  279.792;  367.109;121.75880
 412.00;  387.294;  259.646;  318.778;127.64823
 413.00;  422.401;  264.518;  297.504;157.88272
 414.00;  459.742;  265.150;  316.543;194.59202
 415.00;  491.072;  270.254;  312.032;220.81753
 416.00;  483.807;  266.304;  300.524;217.50346
 417.00;  510.817;  284.690;  285.137;226.12663
 418.00;  550.613;  256.396;  289.372;294.21755
 419.00;  600.698;  250.671;  310.969;350.02692
 420.00;  641.913;  247.412;  287.364;394.50106
 421.00;  682.057;  262.474;  335.871;419.58220
 422.00;  746.476;  292.643;  368.049;453.83279
 423.00;  826.202;  281.295;  305.761;544.90668
 424.00;  868.938;  277.990;  309.930;590.94800
 425.00; 1025.107;  280.346;  349.033;744.76129
 426.00; 1094.820;  263.540;  322.558;831.28040
 427.00; 1239.375;  260.592;  343.058;978.78267
 428.00; 1389.363;  289.756;  347.245;1099.60697
 429.00; 1544.120;  272.814;  347.154;1271.30638
 430.00; 1750.012;  235.921;  356.815;1514.09073
 431.00; 1830.595;  254.034;  345.059;1576.56045
 432.00; 2105.181;  218.450;  338.488;1886.73108
 433.00; 2270.601;  273.551;  334.476;1997.04975
 434.00; 2470.065;  255.295;  343.165;2214.76950
 435.00; 2707.881;  243.340;  498.628;2464.54042
 436.00; 2973.482;  209.151; 1073.483;2764.33092
 437.00; 3323.210;  254.557;  394.903;3068.65297
 438.00; 3557.195;  267.106;  329.754;3290.08841
 439.00; 3862.539;  268.188;  335.143;3594.35075
 440.00; 4229.542;  272.326;  366.184;3957.21558
 441.00; 4511.945;  272.914;  324.613;4239.03028
 442.00; 4892.608;  222.170;  307.989;4670.43773
 443.00; 5292.074;  254.970;  334.417;5037.10387
 444.00; 5784.376;  251.106;  346.600;5533.26928
 445.00; 6149.481;  223.258;  333.902;5926.22213
 446.00; 6465.677;  259.096;  360.328;6206.58067
 447.00; 6704.052;  255.409;  330.014;6448.64357
 448.00; 7175.238;  253.825;  336.918;6921.41393
 449.00; 7256.021;  248.177;  336.892;7007.84374
 450.00; 7267.857;  227.338;  308.096;7040.51872
 451.00; 7149.926;  215.570;  280.445;6934.35600
 452.00; 7219.699;  235.246;  354.914;6984.45268
 453.00; 6987.192;  250.403;  301.442;6736.78844
 454.00; 6878.769;  261.360;  365.789;6617.40897
 455.00; 6670.816;  250.872;  302.737;6419.94488
 456.00; 6317.409;  245.402;  336.908;6072.00717
 457.00; 5953.336;  295.712;  332.910;5657.62374
 458.00; 5611.444;  263.797;  329.815;5347.64741
 459.00; 5426.364;  271.127;  302.200;5155.23689
 460.00; 5062.604;  219.906;  293.081;4842.69853
 461.00; 4868.824;  237.438;  287.180;4631.38523
 462.00; 4588.869;  259.604;  340.784;4329.26496
 463.00; 4395.877;  271.216;  296.616;4124.66128
 464.00; 4141.281;  242.418;  325.002;3898.86316
 465.00; 3891.316;  258.247;  326.682;3633.06848
 466.00; 3626.196;  231.803;  347.299;3394.39277
 467.00; 3449.362;  269.412;  348.143;3179.94961
 468.00; 3221.933;  258.702;  329.643;2963.23113
 469.00; 2948.683;  243.930;  338.818;2704.75371
 470.00; 2709.923;  249.557;  313.891;2460.36666
 471.00; 2515.983;  275.869;  320.092;2240.11426
 472.00; 2245.637;  240.260;  323.143;2005.37718
 473.00; 2112.940;  215.644;  316.887;1897.29596
 474.00; 1968.199;  268.685;  335.806;1699.51487
 475.00; 1721.955;  261.669;  329.207;1460.28587
 476.00; 1636.146;  264.991;  347.488;1371.15485
 477.00; 1520.308;  241.734;  303.300;1278.57354
 478.00; 1391.815;  244.491;  344.101;1147.32387
 479.00; 1323.189;  248.788;  329.593;1074.40054
 480.00; 1220.972;  266.293;  338.671;954.67912
 481.00; 1140.436;  244.256;  308.530;896.18077
 482.00; 1053.760;  240.464;  333.087;813.29654
 483.00;  923.873;  221.021;  279.515;702.85212
 484.00;  936.438;  277.278;  344.846;659.15962
 485.00;  835.388;  241.733;  326.081;593.65491
 486.00;  812.921;  250.387;  322.605;562.53434
 487.00;  759.479;  235.587;  329.025;523.89179
 488.00;  711.787;  255.989;  322.109;455.79814
 489.00;  658.461;  215.719;  317.198;442.74140
 490.00;  653.550;  263.781;  367.766;389.76943
 491.00;  665.866;  279.451;  371.438;386.41459
 492.00;  611.856;  270.919;  372.140;340.93751
 493.00;  548.119;  272.184;  356.473;275.93451
 494.00;  526.741;  242.543;  335.236;284.19813
 495.00;  490.682;  236.199;  313.332;254.48302
 496.00;  499.928;  275.370;  324.925;224.55798
 497.00;  430.100;  190.525;  285.868;239.57463
 498.00;  408.358;  218.606;  333.903;189.75224
 499.00;  464.482;  259.895;  319.047;204.58640
 500.00;  431.465;  220.525;  337.039;210.94004
 501.00;  432.879;  275.639;  314.897;157.23914
 502.00;  410.785;  256.739;  344.346;154.04610
 503.00;  443.435;  254.788;  377.306;188.64694
 504.00;  404.666;  236.346;  329.537;168.31959
 505.00;  371.810;  269.560;  365.629;102.25024
 506.00;  337.936;  248.389;  345.095;89.54752
 507.00;  383.680;  268.239;  367.205;115.44155
 508.00;  380.277;  270.593;  371.822;109.68438
 509.00;  345.445;  269.320;  344.579;76.12530
 510.00;  370.039;  233.639;  349.398;136.40049
 511.00;  358.228;  265.258;  353.690;92.97050
 512.00;  320.587;  247.897;  344.817;72.69071
 513.00;  338.436;  260.021;  331.893;78.41517
 514.00;  381.738;  243.177;  348.340;138.56023
 515.00;  340.005;  275.927;  399.085;64.07742
 516.00;  353.925;  255.838;  354.816;98.08697
 517.00;  316.375;  256.154;  346.560;60.22128
 518.00;  321.197;  280.587;  378.057;40.61012
 519.00;  357.102;  265.762;  355.709;91.33965
 520.00;  302.366;  252.928;  357.026;49.43744
 521.00;  310.776;  257.034;  345.787;53.74172
 522.00;  335.988;  245.554;  369.580;90.43409
 523.00;  312.437;  244.084;  351.575;68.35274
 524.00;  292.271;  275.153;  332.836;17.11837
 525.00;  286.807;  217.926;  368.427;68.88112
 526.00;  307.680;  258.896;  345.490;48.78412
 527.00;  307.183;  221.569;  343.954;85.61367
 528.00;  280.969;  239.999;  327.518;40.96973
 529.00;  302.128;  232.164;  323.480;69.96343
 530.00;  295.125;  228.642;  341.225;66.48303
 531.00;  255.332;  224.742;  342.162;30.59022
 532.00;  253.642;  220.221;  304.170;33.42123
 533.00;  275.089;  232.872;  344.754;42.21732
 534.00;  286.170;  253.813;  334.810;32.35750
 535.00;  291.319;  247.122;  344.081;44.19645
 536.00;  287.291;  232.154;  356.176;55.13673
 537.00;  268.944;  230.498;  362.954;38.44580
 538.00;  253.367;  214.621;  329.427;38.74623
 539.00;  254.341;  227.901;  350.794;26.43935
 540.00;  249.775;  206.228;  355.406;43.54610
 541.00;  299.569;  268.131;  386.343;31.43785
 542.00;  293.150;  239.973;  371.228;53.17749
 543.00;  263.886;  266.602;  353.726;-2.71631
 544.00;  266.466;  231.489;  381.223;34.97730
 545.00;  246.931;  249.924;  504.096;-2.99232
 546.00;  288.564;  225.993; 1500.969;62.57048
 547.00;  259.644;  218.093;  519.458;41.55088
 548.00;  250.750;  264.495;  379.879;-13.74534
 549.00;  263.314;  259.025;  403.322; 4.28919
 550.00;  278.922;  231.233;  400.362;47.68898
 551.00;  251.334;  252.890;  383.956;-1.55647
 552.00;  271.422;  256.912;  391.598;14.50993
 553.00;  278.999;  223.082;  421.612;55.91664
 554.00;  220.633;  257.540;  364.717;-36.90701
 555.00;  246.886;  244.078;  415.851; 2.80714
 556.00;  263.818;  263.031;  394.133; 0.78739
 557.00;  267.588;  229.590;  428.980;37.99761
 558.00;  293.747;  253.894;  401.561;39.85262
 559.00;  252.946;  229.701;  386.820;23.24490
 560.00;  284.069;  241.437;  446.267;42.63251
 561.00;  280.607;  236.971;  410.145;43.63599
 562.00;  273.254;  227.103;  395.478;46.15053
 563.00;  282.537;  243.730;  425.745;38.80702
 564.00;  298.198;  274.539;  440.528;23.65930
 565.00;  247.408;  222.367;  400.080;25.04089
 566.00;  249.086;  243.648;  416.796; 5.43815
 567.00;  281.541;  248.314;  434.458;33.22705
 568.00;  253.290;  255.232;  416.454;-1.94127
 569.00;  255.233;  267.662;  484.057;-12.42828
 570.00;  252.745;  223.066;  459.952;29.67881
 571.00;  260.127;  223.892;  436.409;36.23454
 572.00;  244.824;  231.851;  450.917;12.97340
 573.00;  255.270;  222.271;  457.281;32.99928
 574.00;  257.295;  244.627;  458.454;12.66732
 575.00;  245.488;  234.556;  467.627;10.93192
 576.00;  251.045;  231.985;  485.855;19.05946
 577.00;  268.847;  250.286;  664.129;18.56073
 578.00;  265.226;  242.458;  514.240;22.76868
 579.00;  272.622;  225.020;  664.056;47.60143
 580.00;  277.872;  256.153;  487.948;21.71906
 581.00;  280.199;  256.794;  488.718;23.40496
 582.00;  251.795;  234.633;  470.280;17.16221
 583.00;  264.005;  247.049;  480.530;16.95640
 584.00;  243.012;  229.889;  455.317;13.12273
 585.00;  255.395;  240.363;  461.285;15.03226
 586.00;  250.691;  240.561;  484.070;10.12970
 587.00;  261.818;  294.726;  482.481;-32.90832
 588.00;  280.792;  246.042;  465.912;34.74992
 589.00;  203.097;  188.144;  464.188;14.95319
 590.00;  148.171;  157.615;  389.469;-9.44432
 591.00;  206.507;  179.929;  399.326;26.57854
 592.00;  156.917;  176.126;  388.535;-19.20911
 593.00;  148.961;  159.873;  394.478;-10.91180
 594.00;  181.782;  133.166;  363.418;48.61623
 595.00;  198.118;  147.509;  362.710;50.60854
 596.00;  177.109;  141.854;  364.452;35.25531
 597.00;  159.883;  126.652;  377.964;33.23150
 598.00;  189.920;  184.591;  399.254; 5.32870
 599.00;  192.057;  193.109;  403.913;-1.05200
 600.00;  188.377;  158.260;  391.826;30.11682
 601.00;  204.953;  193.923;  409.724;11.02913
 602.00;  194.219;  215.045;  394.789;-20.82613
 603.00;  183.003;  194.874;  362.141;-11.87095
 604.00;  245.630;  222.240;  433.553;23.38961
 605.00;  221.663;  205.064;  409.612;16.59858
 606.00;  241.892;  223.791;  403.494;18.10110
 607.00;  228.991;  208.722;  379.034;20.26899
 608.00;  157.664;  127.722;  276.137;29.94193
 609.00;  144.422;  161.495;  334.602;-17.07315
 610.00;  145.635;  157.404;  341.908;-11.76885
 611.00;  160.964;  140.910;  309.817;20.05373
 612.00;  182.820;  174.732;  333.170; 8.08799
 613.00;  160.999;  188.033;  334.307;-27.03428
 614.00;  157.888;  170.796;  337.546;-12.90729
 615.00;  173.895;  194.114;  312.526;-20.21955
 616.00;  143.117;  178.096;  330.861;-34.97935
 617.00;  217.066;  195.181;  307.274;21.88482
 618.00;  179.553;  157.252;  303.787;22.30077
 619.00;  154.506;  135.782;  304.052;18.72366
 620.00;  190.503;  170.261;  277.597;20.24202
 621.00;  161.640;  164.129;  297.533;-2.48892
 622.00;  180.645;  174.178;  283.262; 6.46690
 623.00;  190.190;  141.120;  293.381;49.06988
 624.00;  179.427;  180.228;  297.984;-0.80110
 625.00;  177.075;  182.526;  286.244;-5.45144
 626.00;  138.422;  130.394;  302.625; 8.02724
 627.00;  165.498;  155.487;  293.439;10.01080
 628.00;  130.559;  148.990;  224.595;-18.43141
 629.00;  167.228;  180.525;  257.134;-13.29700
 630.00;  168.211;  153.444;  256.426;14.76647
 631.00;  156.730;  183.251;  267.207;-26.52097
 632.00;  168.681;  158.162;  249.248;10.51973
 633.00;  150.427;  160.074;  246.927;-9.64710
 634.00;  172.423;  140.055;  247.751;32.36849
 635.00;  164.012;  135.929;  241.081;28.08268
 636.00;  191.042;  175.470;  301.335;15.57172
 637.00;  188.548;  169.490;  253.119;19.05888
 638.00;  164.908;  158.108;  248.558; 6.79981
 639.00;  189.865;  182.515;  258.874; 7.34992
 640.00;  175.634;  161.710;  250.499;13.92454
 641.00;  161.033;  171.114;  261.352;-10.08159
 642.00;  162.560;  174.579;  254.379;-12.01881
 643.00;  146.770;  149.746;  224.093;-2.97525
 644.00;  163.072;  155.114;  225.075; 7.95845
 645.00;  174.561;  154.837;  221.266;19.72394
 646.00;  193.062;  165.239;  241.119;27.82310
 647.00;  153.941;  151.546;  207.650; 2.39473
 648.00;  141.730;  137.790;  207.850; 3.94067
 649.00;  138.616;  138.066;  230.222; 0.55071
 650.00;  163.875;  164.029;  223.291;-0.15457
 651.00;  135.421;  139.209;  209.736;-3.78765
 652.00;  201.709;  200.241;  263.377; 1.46709
 653.00;  166.649;  165.839;  257.313; 0.81022
 654.00;  163.645;  138.804;  235.689;24.84145
 655.00;  212.668;  164.096;  270.078;48.57239
 656.00;  158.095;  158.746;  238.030;-0.65139
 657.00;  166.299;  168.020;  211.280;-1.72116
 658.00;  184.378;  168.347;  205.650;16.03084
 659.00;  175.398;  163.373;  214.777;12.02490
 660.00;  155.594;  142.463;  206.292;13.13120
 661.00;  139.066;  150.170;  194.541;-11.10380
 662.00;  155.220;  191.983;  234.596;-36.76354
 663.00;  129.502;  151.646;  182.739;-22.14381
 664.00;  163.069;  141.527;  193.489;21.54160
 665.00;  131.903;  167.237;  185.169;-35.33434
 666.00;  141.954;  158.722;  201.654;-16.76787
 667.00;  147.313;  147.946;  215.880;-0.63264
 668.00;  170.265;  172.429;  231.521;-2.16373
 669.00;  141.964;  151.926;  227.239;-9.96208
 670.00;  134.606;  130.769;  199.573; 3.83692
 671.00;  125.787;  166.959;  200.790;-41.17182
 672.00;  175.905;  153.038;  219.031;22.86679
 673.00;  141.027;  131.457;  186.719; 9.56936
 674.00;  145.176;  172.448;  200.423;-27.27209
 675.00;  121.108;  159.365;  178.528;-38.25702
 676.00;  161.124;  168.727;  196.471;-7.60293
 677.00;  167.033;  147.402;  178.203;19.63094
 678.00;  164.811;  151.513;  200.425;13.29822
 679.00;  144.466;  162.249;  185.273;-17.78309
 680.00;  154.214;  160.857;  190.489;-6.64346
 681.00;  137.957;  122.085;  183.156;15.87282
 682.00;  159.949;  190.759;  231.396;-30.81055
 683.00;  152.170;  166.800;  182.264;-14.63049
 684.00;  151.485;  153.089;  192.666;-1.60421
 685.00;  177.685;  189.125;  206.054;-11.43998
 686.00;  137.621;  192.135;  174.404;-54.51409
 687.00;  129.556;  137.036;  170.528;-7.48065
 688.00;  152.526;  159.786;  171.047;-7.26027
 689.00;  169.674;  166.386;  214.226; 3.28848
 690.00;  137.558;  152.325;  202.133;-14.76719
 691.00;  130.740;  160.490;  191.847;-29.75041
 692.00;  156.202;  164.456;  178.774;-8.25361
 693.00;  132.103;  159.160;  206.494;-27.05708
 694.00;  162.265;  160.520;  189.872; 1.74459
 695.00;  135.994;  155.537;  210.563;-19.54266
 696.00;  141.920;  169.946;  168.612;-28.02624
 697.00;  140.658;  126.817;  200.214;13.84087
 698.00;  140.673;  153.691;  167.121;-13.01736
 699.00;  139.222;  192.834;  243.456;-53.61271
 700.00;  157.898;  156.309;  210.700; 1.58895
 701.00;  183.248;  159.848;  215.216;23.40015
 702.00;  130.395;  140.251;  169.367;-9.85579
 703.00;  154.421;  124.337;  149.364;30.08463
 704.00;  165.240;  133.429;  194.688;31.81082
 705.00;  153.046;  136.642;  203.831;16.40474
 706.00;  166.252;  160.975;  179.640; 5.27698
 707.00;  178.138;  153.238;  191.597;24.90068
 708.00;  117.590;  118.913;  164.276;-1.32326
 709.00;  136.693;  140.740;  171.557;-4.04672
 710.00;  173.236;  153.851;  187.665;19.38582
 711.00;  144.373;  144.128;  217.357; 0.24512
 712.00;  162.698;  149.182;  175.228;13.51630
 713.00;  189.994;  195.510;  193.542;-5.51576
 714.00;  182.916;  143.246;  187.885;39.67044
 715.00;  134.564;  125.876;  140.802; 8.68868
 716.00;  176.289;  158.112;  191.097;18.17696
 717.00;  170.455;  167.016;  201.535; 3.43964
 718.00;  157.411;  141.504;  186.552;15.90697
 719.00;  169.756;  169.992;  214.438;-0.23592
 720.00;  159.367;  170.620;  217.115;-11.25370
 721.00;  177.011;  164.634;  195.018;12.37674
 722.00;  190.150;  167.780;  232.554;22.37031
 723.00;  136.087;  181.905;  161.586;-45.81774
 724.00;  186.150;  193.647;  248.495;-7.49727
 725.00;  182.570;  197.845;  225.400;-15.27528
 726.00;  176.809;  181.227;  201.035;-4.41842
 727.00;  166.404;  170.967;  208.376;-4.56315
 728.00;  185.153;  191.716;  214.784;-6.56249
 729.00;  175.317;  139.510;  192.703;35.80702
 730.00;  208.402;  195.970;  217.371;12.43274
 731.00;  163.374;  172.512;  205.069;-9.13789
 732.00;  173.135;  179.547;  192.951;-6.41207
 733.00;  185.568;  189.227;  235.311;-3.65908
 734.00;  173.766;  186.668;  232.665;-12.90250
 735.00;  152.280;  131.719;  182.206;20.56044
 736.00;  182.286;  183.713;  235.072;-1.42718
 737.00;  186.767;  196.121;  212.566;-9.35388
 738.00;  172.687;  170.284;  201.743; 2.40307
 739.00;  180.964;  180.635;  193.012; 0.32853
 740.00;  160.150;  171.534;  208.269;-11.38400
 741.00;  168.703;  181.787;  167.113;-13.08427
 742.00;  207.562;  214.229;  229.759;-6.66758
 743.00;  179.046;  166.034;  179.305;13.01167
 744.00;  157.495;  164.116;  215.031;-6.62030
 745.00;  196.223;  185.095;  231.781;11.12780
 746.00;  175.872;  164.698;  205.428;11.17382
 747.00;  165.150;  162.244;  191.133; 2.90630
 748.00;  168.266;  162.812;  183.065; 5.45420
 749.00;  190.668;  211.992;  242.801;-21.32493
 750.00;  157.773;  160.026;  191.042;-2.25333
 751.00;  178.108;  177.435;  235.779; 0.67299
 752.00;  195.720;  155.412;  197.104;40.30830
 753.00;  155.568;  163.842;  186.137;-8.27417
 754.00;  193.378;  178.893;  206.162;14.48523
 755.00;  184.823;  197.256;  207.216;-12.43244
 756.00;  159.318;  155.423;  194.308; 3.89506
 757.00;  169.211;  185.256;  184.476;-16.04550
 758.00;  166.587;  157.776;  188.316; 8.81095
 759.00;  180.548;  203.543;  220.582;-22.99551
 760.00;  153.546;  177.577;  210.801;-24.03135
 761.00;  167.787;  174.318;  201.609;-6.53081
 762.00;  176.291;  182.326;  191.701;-6.03454
 763.00;  203.031;  159.238;  182.466;43.79353
 764.00;  181.854;  181.973;  233.145;-0.11865
 765.00;  189.771;  173.296;  206.226;16.47503
 766.00;  140.150;  159.679;  189.787;-19.52895
 767.00;  161.511;  158.216;  172.353; 3.29546
 768.00;  190.957;  178.605;  189.651;12.35179
 769.00;  155.181;  167.964;  211.856;-12.78317
 770.00;  176.368;  184.552;  214.590;-8.18375
 771.00;  172.026;  186.803;  213.841;-14.77658
 772.00;  186.764;  185.557;  219.726; 1.20675
 773.00;  157.807;  165.694;  185.539;-7.88633
 774.00;  197.240;  192.603;  221.834; 4.63679
 775.00;  221.920;  195.453;  225.948;26.46632
 776.00;  175.918;  188.041;  221.014;-12.12322
 777.00;  153.248;  164.259;  195.768;-11.01135
 778.00;  196.150;  172.015;  200.851;24.13470
 779.00;  192.840;  209.669;  225.482;-16.82947
 780.00;  184.397;  183.682;  239.491; 0.71551
 781.00;  206.644;  186.783;  241.776;19.86120
 782.00;  202.150;  177.014;  213.603;25.13603
 783.00;  194.435;  192.082;  212.192; 2.35301
 784.00;  163.513;  174.202;  218.187;-10.68928
 785.00;  184.265;  201.165;  231.931;-16.90065
 786.00;  199.232;  188.734;  248.365;10.49808
 787.00;  202.409;  167.090;  226.826;35.31869
 788.00;  211.507;  202.756;  243.495; 8.75163
 789.00;  196.281;  177.337;  227.064;18.94394
 790.00;  189.641;  184.893;  207.661; 4.74832
 791.00;  179.940;  170.575;  174.391; 9.36471
 792.00;  208.124;  212.634;  233.148;-4.50961
 793.00;  203.389;  213.483;  214.486;-10.09440
 794.00;  179.455;  183.293;  211.516;-3.83836
 795.00;  180.580;  168.867;  233.148;11.71382
 796.00;  206.604;  178.004;  218.047;28.60049
 797.00;  177.599;  199.531;  211.632;-21.93156
 798.00;  184.775;  179.232;  210.807; 5.54384
 799.00;  164.658;  208.832;  234.655;-44.17437
 800.00;  190.821;  214.395;  214.207;-23.57383
 801.00;  189.704;  183.589;  231.245; 6.11434
 802.00;  181.362;  205.798;  203.972;-24.43614
 803.00;  205.824;  175.866;  204.095;29.95771
 804.00;  180.737;  162.777;  187.902;17.96010
 805.00;  190.244;  224.287;  250.207;-34.04314
 806.00;  203.426;  183.129;  212.710;20.29689
 807.00;  210.194;  164.706;  218.181;45.48750
 808.00;  191.056;  204.404;  194.390;-13.34838
 809.00;  174.670;  177.555;  196.437;-2.88542
 810.00;  177.279;  186.671;  230.380;-9.39232
 811.00;  159.970;  158.566;  240.729; 1.40364
 812.00;  213.895;  217.558;  244.956;-3.66357
 813.00;  180.888;  174.767;  202.630; 6.12081
 814.00;  200.199;  204.229;  221.039;-4.03001
 815.00;  200.850;  173.139;  205.531;27.71089
 816.00;  179.915;  189.846;  235.336;-9.93175
 817.00;  212.690;  203.908;  244.591; 8.78182
 818.00;  158.403;  156.531;  183.726; 1.87258
 819.00;  197.607;  182.089;  225.872;15.51827
 820.00;  188.143;  184.469;  211.521; 3.67311
 821.00;  166.081;  178.857;  216.648;-12.77530
 822.00;  174.279;  192.728;  188.961;-18.44846
 823.00;  165.942;  182.505;  222.101;-16.56302
 824.00;  161.515;  171.815;  222.340;-10.30063
 825.00;  195.229;  216.008;  226.082;-20.77847
 826.00;  183.041;  172.718;  212.521;10.32279
 827.00;  183.901;  161.604;  212.002;22.29661
 828.00;  168.069;  169.523;  225.077;-1.45321
 829.00;  166.406;  153.939;  188.414;12.46628
 830.00;  159.154;  153.107;  184.984; 6.04717
 831.00;  169.888;  161.492;  197.918; 8.39598
 832.00;  146.731;  160.243;  235.787;-13.51192
 833.00;  181.501;  184.645;  184.394;-3.14467
 834.00;  198.837;  180.304;  199.433;18.53326
 835.00;  187.782;  167.866;  179.750;19.91663
 836.00;  161.058;  162.230;  183.923;-1.17218
 837.00;  179.243;  183.049;  211.290;-3.80615
 838.00;  168.701;  179.683;  178.387;-10.98259
 839.00;  158.170;  157.610;  195.215; 0.55959
 840.00;  163.928;  171.379;  185.237;-7.45158
 841.00;  166.412;  153.762;  175.831;12.64980
 842.00;  205.717;  210.460;  225.134;-4.74307
 843.00;  189.803;  192.850;  260.135;-3.04709
 844.00;  181.300;  153.498;  218.160;27.80124
 845.00;  153.114;  170.397;  209.611;-17.28280
 846.00;  169.951;  164.896;  226.628; 5.05492
 847.00;  195.498;  159.642;  219.184;35.85625
 848.00;  166.988;  160.511;  205.787; 6.47680
 849.00;  182.411;  190.442;  189.874;-8.03034
 850.00;  178.427;  172.202;  207.260; 6.22570
 851.00;  146.322;  161.990;  175.085;-15.66838
 852.00;  181.969;  189.078;  219.119;-7.10912
 853.00;  184.072;  195.236;  192.922;-11.16386
 854.00;  179.903;  197.820;  226.446;-17.91709
 855.00;  164.976;  163.647;  186.389; 1.32920
 856.00;  174.140;  171.370;  203.612; 2.76994
 857.00;  187.543;  188.140;  238.773;-0.59719
 858.00;  182.390;  192.533;  221.454;-10.14266
 859.00;  149.991;  202.280;  185.186;-52.28967
 860.00;  189.187;  204.434;  222.240;-15.24761
 861.00;  210.836;  193.622;  203.416;17.21363
 862.00;  198.620;  170.245;  192.584;28.37556
 863.00;  205.808;  182.827;  226.559;22.98074
 864.00;  163.498;  175.909;  166.027;-12.41128
 865.00;  182.150;  188.641;  219.636;-6.49142
 866.00;  175.731;  191.927;  208.832;-16.19582
 867.00;  197.336;  175.674;  199.813;21.66266
 868.00;  180.377;  189.010;  227.231;-8.63318
 869.00;  192.907;  214.069;  230.843;-21.16229
 870.00;  202.426;  201.823;  208.186; 0.60243
 871.00;  183.695;  174.236;  227.747; 9.45920
 872.00;  182.946;  162.515;  238.659;20.43155
 873.00;  195.512;  191.768;  209.280; 3.74473
 874.00;  205.439;  215.293;  237.225;-9.85411
 875.00;  187.060;  178.902;  193.902; 8.15834
 876.00;  198.140;  175.492;  215.516;22.64809
 877.00;  188.767;  176.930;  239.262;11.83754
 878.00;  183.053;  179.233;  229.526; 3.82008
 879.00;  216.102;  223.612;  248.520;-7.51036
 880.00;  182.134;  208.524;  198.244;-26.39049
 881.00;  171.570;  203.041;  211.850;-31.47057
 882.00;  187.034;  185.841;  189.142; 1.19325
 883.00;  188.500;  192.072;  246.954;-3.57140
 884.00;  212.698;  198.946;  228.203;13.75221
 885.00;  193.668;  193.748;  203.703;-0.08006
 886.00;  181.900;  181.553;  208.475; 0.34682
 887.00;  187.998;  175.552;  229.229;12.44630
 888.00;  197.531;  170.786;  228.606;26.74477
 889.00;  174.739;  178.857;  245.428;-4.11827
 890.00;  197.492;  206.746;  225.665;-9.25389
 891.00;  177.601;  163.277;  216.227;14.32460
 892.00;  185.858;  172.831;  198.471;13.02711
 893.00;  169.093;  150.187;  213.894;18.90614
 894.00;  229.303;  184.557;  251.364;44.74599
 895.00;  168.224;  166.854;  204.016; 1.36940
 896.00;  186.150;  162.405;  189.394;23.74501
 897.00;  197.132;  203.725;  235.785;-6.59239
 898.00;  157.970;  181.741;  196.034;-23.77110
 899.00;  199.572;  176.047;  226.496;23.52455
 900.00;  198.530;  185.443;  197.809;13.08681
 901.00;  195.561;  189.736;  200.749; 5.82558
 902.00;  198.573;  188.005;  209.694;10.56789
 903.00;  189.591;  157.655;  217.520;31.93544
 904.00;  148.947;  166.811;  172.924;-17.86436
 905.00;  203.828;  215.058;  221.882;-11.22984
 906.00;  194.076;  175.032;  217.089;19.04469
 907.00;  180.191;  167.354;  211.266;12.83669
 908.00;  178.896;  207.738;  194.600;-28.84142
 909.00;  202.647;  195.557;  234.166; 7.08974
 910.00;  208.309;  214.091;  221.942;-5.78221
 911.00;  190.237;  182.518;  243.219; 7.71840
 912.00;  196.093;  187.702;  217.727; 8.39101
 913.00;  209.074;  202.167;  195.764; 6.90663
 914.00;  178.479;  164.769;  201.295;13.70961
 915.00;  151.452;  189.949;  213.569;-38.49681
 916.00;  179.423;  201.199;  223.697;-21.77647
 917.00;  205.704;  227.458;  232.091;-21.75401
 918.00;  206.002;  205.279;  227.645; 0.72365
 919.00;  162.255;  162.654;  205.646;-0.39891
 920.00;  175.220;  174.902;  236.014; 0.31874
 921.00;  187.476;  196.696;  234.337;-9.22032
 922.00;  164.657;  167.015;  193.921;-2.35851
 923.00;  161.794;  138.567;  185.777;23.22768
 924.00;  191.336;  167.615;  232.665;23.72084
 925.00;  163.703;  189.374;  201.742;-25.67137
 926.00;  178.798;  181.834;  236.001;-3.03600
 927.00;  150.165;  172.866;  227.436;-22.70091
 928.00;  199.404;  183.042;  207.377;16.36244
 929.00;  168.175;  190.399;  197.239;-22.22459
 930.00;  220.117;  226.246;  244.727;-6.12901
 931.00;  173.164;  191.668;  222.592;-18.50340
 932.00;  198.895;  193.142;  230.582; 5.75307
 933.00;  177.713;  171.472;  204.303; 6.24074
 934.00;  204.634;  235.149;  249.248;-30.51524
 935.00;  177.915;  160.550;  199.520;17.36513
 936.00;  179.005;  193.917;  219.955;-14.91209
 937.00;  181.707;  161.662;  209.114;20.04433
 938.00;  198.203;  176.609;  222.192;21.59340
 939.00;  200.116;  210.441;  224.013;-10.32518
 940.00;  194.133;  197.932;  211.304;-3.79832
 941.00;  165.150;  177.050;  177.475;-11.90001
 942.00;  212.106;  229.463;  255.145;-17.35728
 943.00;  198.979;  171.632;  205.906;27.34669
 944.00;  181.252;  165.008;  198.526;16.24379
 945.00;  166.753;  179.130;  186.507;-12.37706
 946.00;  165.069;  190.402;  175.494;-25.33287
 947.00;  169.556;  166.333;  201.948; 3.22340
 948.00;  180.309;  173.820;  197.447; 6.48891
 949.00;  194.150;  225.041;  234.278;-30.89073
 950.00;  153.490;  150.791;  189.366; 2.69960
 951.00;  213.630;  177.135;  230.581;36.49477
 952.00;  195.494;  188.284;  195.506; 7.20937
 953.00;  179.004;  179.684;  209.447;-0.68028
 954.00;  182.228;  187.744;  211.400;-5.51646
 955.00;  202.194;  209.871;  214.752;-7.67747
 956.00;  197.278;  192.097;  224.755; 5.18117
 957.00;  192.585;  211.150;  230.401;-18.56505
 958.00;  215.056;  231.488;  201.204;-16.43224
 959.00;  169.407;  163.780;  195.731; 5.62685
 960.00;  217.663;  214.961;  243.059; 2.70204
 961.00;  203.795;  175.335;  213.435;28.45985
 962.00;  250.872;  215.623;  245.166;35.24843
 963.00;  179.704;  193.624;  236.465;-13.92027
 964.00;  191.794;  196.811;  227.156;-5.01756
 965.00;  228.092;  239.427;  255.563;-11.33507
 966.00;  182.228;  201.394;  220.401;-19.16563
 967.00;  212.439;  198.189;  232.318;14.24940
 968.00;  195.553;  182.156;  178.723;13.39674
 969.00;  170.959;  168.032;  204.719; 2.92641
 970.00;  161.408;  172.926;  184.800;-11.51805
 971.00;  191.563;  180.542;  235.483;11.02065
 972.00;  187.719;  201.221;  228.630;-13.50121
 973.00;  201.921;  187.502;  216.169;14.41933
 974.00;  234.760;  220.007;  266.736;14.75307
 975.00;  265.213;  240.509;  287.374;24.70399
 976.00;  220.366;  231.419;  268.660;-11.05309
 977.00;  209.462;  197.169;  226.509;12.29323
 978.00;  210.689;  207.012;  224.225; 3.67763
 979.00;  219.145;  246.379;  265.553;-27.23375
 980.00;  227.734;  221.417;  236.329; 6.31679
 981.00;  193.614;  178.436;  232.227;15.17763
 982.00;  213.078;  229.837;  290.678;-16.75829
 983.00;  224.591;  213.034;  255.719;11.55678
 984.00;  220.062;  215.080;  241.112; 4.98244
 985.00;  218.273;  199.553;  217.473;18.72047
 986.00;  241.486;  230.870;  251.022;10.61562
 987.00;  218.444;  256.113;  258.007;-37.66867
 988.00;  223.459;  218.508;  235.343; 4.95107
 989.00;  220.816;  221.139;  266.149;-0.32359
 990.00;  169.791;  227.863;  239.723;-58.07188
 991.00;  201.300;  196.280;  223.726; 5.02052
 992.00;  233.730;  244.970;  260.235;-11.23961
 993.00;  190.658;  196.624;  228.112;-5.96642
 994.00;  224.441;  218.187;  251.167; 6.25307
 995.00;  210.515;  237.214;  259.291;-26.69884
 996.00;  175.337;  179.476;  230.151;-4.13829
 997.00;  226.323;  222.792;  245.707; 3.53114
 998.00;  219.014;  235.062;  259.682;-16.04771
 999.00;  224.166;  225.519;  219.397;-1.35313
1000.00;  199.849;  186.954;  218.861;12.89467
1001.00;  223.896;  217.406;  263.693; 6.49001
1002.00;  228.873;  233.954;  226.693;-5.08092
1003.00;  198.712;  187.038;  221.250;11.67421
1004.00;  225.097;  232.219;  229.065;-7.12279
1005.00;  205.739;  198.371;  220.088; 7.36842
1006.00;  215.408;  205.849;  237.546; 9.55934
1007.00;  260.922;  277.101;  308.114;-16.17929
1008.00;  194.530;  176.650;  200.086;17.87929
1009.00;  213.444;  215.665;  208.913;-2.22057
1010.00;  209.358;  228.214;  254.336;-18.85558
1011.00;  194.272;  224.391;  242.468;-30.11949
1012.00;  201.409;  187.591;  234.224;13.81776
1013.00;  221.424;  205.333;  226.597;16.09096
1014.00;  204.089;  174.366;  256.421;29.72255
1015.00;  189.785;  167.193;  207.807;22.59242
1016.00;  195.215;  223.982;  246.994;-28.76683
1017.00;  214.661;  227.592;  243.817;-12.93077
1018.00;  176.664;  166.554;  198.715;10.11024
1019.00;  193.971;  210.603;  262.570;-16.63194
1020.00;  168.483;  188.034;  184.040;-19.55138
1021.00;  208.603;  217.878;  242.384;-9.27562
1022.00;  221.808;  221.770;  249.359; 0.03810
1023.00;  180.270;  163.422;  206.393;16.84804
1024.00;  174.547;  200.644;  200.187;-26.09740
1025.00;  225.230;  201.550;  254.797;23.68019
1026.00;  187.338;  184.384;  246.387; 2.95399
1027.00;  207.150;  196.654;  240.091;10.49550
1028.00;  200.068;  180.013;  248.818;20.05495
1029.00;  214.830;  197.167;  234.944;17.66249
1030.00;  210.630;  207.611;  241.755; 3.01991
1031.00;  201.186;  209.743;  275.316;-8.55638
1032.00;  197.605;  184.433;  227.822;13.17140
1033.00;  200.192;  182.620;  251.234;17.57143
1034.00;  199.878;  193.736;  224.390; 6.14174
1035.00;  210.140;  210.965;  234.073;-0.82555
1036.00;  199.659;  213.696;  282.389;-14.03673
1037.00;  206.699;  215.669;  235.971;-8.97057
1038.00;  222.477;  191.006;  216.986;31.47060
1039.00;  187.291;  196.869;  219.754;-9.57799
1040.00;  205.822;  200.401;  221.300; 5.42079
1041.00;  217.823;  218.659;  216.623;-0.83653
1042.00;  207.582;  205.042;  227.783; 2.53969
1043.00;  224.643;  243.637;  251.414;-18.99473
1044.00;  196.271;  198.192;  229.050;-1.92113
1045.00;  193.259;  193.667;  232.280;-0.40782
1046.00;  157.902;  169.288;  234.455;-11.38634
1047.00;  219.219;  210.769;  272.174; 8.44960
1048.00;  232.642;  249.304;  261.225;-16.66221
1049.00;  213.777;  205.496;  227.808; 8.28114
1050.00;  228.500;  212.309;  249.166;16.19130
1051.00;  201.032;  239.175;  257.476;-38.14293
1052.00;  202.376;  212.128;  265.212;-9.75218
1053.00;  239.414;  222.551;  235.121;16.86244
1054.00;  242.539;  219.689;  238.892;22.84987
1055.00;  201.552;  219.837;  203.041;-18.28490
1056.00;  197.047;  205.578;  231.574;-8.53099
1057.00;  210.924;  230.227;  238.644;-19.30284
1058.00;  213.251;  227.226;  260.684;-13.97472
1059.00;  235.043;  220.159;  260.661;14.88441
1060.00;  232.436;  225.471;  225.624; 6.96474
1061.00;  223.459;  218.859;  272.909; 4.59999
1062.00;  215.435;  215.072;  239.167; 0.36256
1063.00;  272.533;  232.878;  286.418;39.65468
1064.00;  244.000;  227.305;  278.598;16.69472
1065.00;  242.486;  243.731;  292.696;-1.24559
1066.00;  223.948;  236.584;  264.023;-12.63585
1067.00;  220.484;  204.530;  239.539;15.95436
1068.00;  208.241;  229.645;  237.798;-21.40465
1069.00;  217.997;  202.677;  254.175;15.32045
1070.00;  222.803;  214.714;  226.542; 8.08925
1071.00;  206.576;  207.837;  244.725;-1.26109
1072.00;  227.041;  197.120;  227.675;29.92091
1073.00;  245.570;  229.034;  277.385;16.53554
1074.00;  185.303;  207.680;  236.951;-22.37657
1075.00;  237.442;  220.858;  273.194;16.58461
1076.00;  219.001;  230.046;  223.645;-11.04503
1077.00;  179.505;  220.851;  266.469;-41.34642
1078.00;  159.543;  170.163;  183.472;-10.62010
1079.00;  236.892;  252.293;  272.443;-15.40159
1080.00;  208.037;  233.052;  255.002;-25.01524
1081.00;  214.464;  249.167;  265.045;-34.70274
1082.00;  233.670;  236.091;  254.480;-2.42052
1083.00;  207.200;  207.563;  240.615;-0.36363
1084.00;  225.080;  210.700;  233.225;14.38075
1085.00;  238.201;  213.423;  266.744;24.77724
1086.00;  239.597;  229.394;  263.358;10.20351
1087.00;  197.374;  217.966;  235.147;-20.59178
1088.00;  188.908;  195.934;  222.805;-7.02599
1089.00;  208.092;  230.890;  262.050;-22.79796
1090.00;  200.354;  223.964;  205.817;-23.60997
1091.00;  181.293;  197.336;  232.154;-16.04356
1092.00;  222.735;  237.310;  214.329;-14.57494
1093.00;  219.889;  205.507;  251.182;14.38222
1094.00;  226.467;  244.659;  255.218;-18.19199
1095.00;  207.035;  214.832;  227.248;-7.79698
1096.00;  227.710;  224.906;  240.158; 2.80336
1097.00;  222.702;  236.456;  269.197;-13.75499
1098.00;  220.152;  227.487;  259.026;-7.33482
1099.00;  249.154;  250.836;  273.221;-1.68223
1100.00;  233.651;  199.943;  247.368;33.70729

